    energy(eV)      sigma_t(b)
    1.000000e-05    5.586627e+01
    1.103037e-05    5.320418e+01
    1.216691e-05    5.067004e+01
    1.342055e-05    4.825774e+01
    1.480336e-05    4.596149e+01
    1.632865e-05    4.377576e+01
    1.801111e-05    4.169530e+01
    1.986691e-05    3.971511e+01
    2.191394e-05    3.783042e+01
    2.417189e-05    3.603670e+01
    2.666248e-05    3.432963e+01
    2.940971e-05    3.270512e+01
    3.243999e-05    3.115924e+01
    3.578251e-05    2.968829e+01
    3.946943e-05    2.828872e+01
    4.353624e-05    2.695718e+01
    4.802208e-05    2.569044e+01
    5.297013e-05    2.448547e+01
    5.842801e-05    2.333937e+01
    6.444825e-05    2.224937e+01
    7.108881e-05    2.121286e+01
    7.841358e-05    2.022733e+01
    8.649308e-05    1.929042e+01
    9.540506e-05    1.839986e+01
    1.052353e-04    1.755351e+01
    1.160784e-04    1.674933e+01
    1.289420e-04    1.593211e+01
    1.432240e-04    1.515918e+01
    1.590958e-04    1.442766e+01
    1.767178e-04    1.373622e+01
    1.963013e-04    1.308226e+01
    2.180443e-04    1.246460e+01
    2.422075e-04    1.188091e+01
    2.690352e-04    1.133012e+01
    2.988492e-04    1.081015e+01
    3.319507e-04    1.032003e+01
    3.687368e-04    9.857906e+00
    4.095793e-04    9.422889e+00
    4.549680e-04    9.013323e+00
    5.053618e-04    8.628403e+00
    5.613650e-04    8.266640e+00
    6.235436e-04    7.927299e+00
    6.974952e-04    7.588629e+00
    7.802173e-04    7.272937e+00
    8.727501e-04    6.979094e+00
    9.762572e-04    6.706023e+00
    1.092040e-03    6.452689e+00
    1.230172e-03    6.203986e+00
    1.385708e-03    5.975386e+00
    1.560985e-03    5.765588e+00
    1.770751e-03    5.562885e+00
    2.008705e-03    5.378895e+00
    2.294596e-03    5.203663e+00
    2.621306e-03    5.046443e+00
    3.015509e-03    4.898989e+00
    3.493293e-03    4.762364e+00
    4.075325e-03    4.637275e+00
    4.787870e-03    4.524142e+00
    5.664399e-03    4.423060e+00
    6.795943e-03    4.330477e+00
    8.268559e-03    4.247492e+00
    1.027367e-02    4.172403e+00
    1.312839e-02    4.104734e+00
    1.725221e-02    4.046186e+00
    2.364568e-02    3.995595e+00
    2.524188e-02    3.986975e+00
    2.530000e-02    3.986681e+00
    3.719198e-02    3.946245e+00
    5.988462e-02    3.914085e+00
    1.124886e-01    3.889504e+00
    2.835776e-01    3.872621e+00
    1.680263e+00    3.863392e+00
    1.021563e+05    3.642575e+00
    1.632600e+05    3.531078e+00
    1.992820e+05    3.476060e+00
    2.361962e+05    3.438284e+00
    2.623438e+05    3.425971e+00
    2.865363e+05    3.444627e+00
    2.995777e+05    3.469530e+00
    3.097289e+05    3.501492e+00
    3.182800e+05    3.535064e+00
    3.287500e+05    3.598089e+00
    3.368600e+05    3.668517e+00
    3.425800e+05    3.730328e+00
    3.497200e+05    3.830349e+00
    3.554400e+05    3.929767e+00
    3.597300e+05    4.023031e+00
    3.640100e+05    4.132884e+00
    3.685938e+05    4.272680e+00
    3.725900e+05    4.422639e+00
    3.754500e+05    4.545394e+00
    3.785547e+05    4.698755e+00
    3.818750e+05    4.890748e+00
    3.854500e+05    5.136187e+00
    3.885156e+05    5.383570e+00
    3.911700e+05    5.634342e+00
    3.934961e+05    5.881620e+00
    3.961650e+05    6.211191e+00
    3.984766e+05    6.533246e+00
    4.001367e+05    6.793425e+00
    4.017969e+05    7.078799e+00
    4.034570e+05    7.391870e+00
    4.054600e+05    7.812665e+00
    4.068900e+05    8.138957e+00
    4.084375e+05    8.522355e+00
    4.100977e+05    8.971152e+00
    4.117578e+05    9.459184e+00
    4.134180e+05    9.987412e+00
    4.161750e+05    1.095655e+01
    4.183984e+05    1.179931e+01
    4.250391e+05    1.446789e+01
    4.269000e+05    1.513920e+01
    4.283594e+05    1.560835e+01
    4.300195e+05    1.604318e+01
    4.311800e+05    1.627143e+01
    4.326100e+05    1.646723e+01
    4.341699e+05    1.655610e+01
    4.360352e+05    1.648465e+01
    4.370703e+05    1.636501e+01
    4.383300e+05    1.614452e+01
    4.397600e+05    1.581338e+01
    4.412109e+05    1.540583e+01
    4.432812e+05    1.471677e+01
    4.515625e+05    1.160177e+01
    4.540500e+05    1.074469e+01
    4.557031e+05    1.020967e+01
    4.577734e+05    9.594728e+00
    4.598438e+05    9.034969e+00
    4.619141e+05    8.528192e+00
    4.640600e+05    8.055839e+00
    4.660547e+05    7.659043e+00
    4.683400e+05    7.253626e+00
    4.701953e+05    6.954620e+00
    4.726300e+05    6.606165e+00
    4.743359e+05    6.382752e+00
    4.776983e+05    5.999082e+00
    4.798433e+05    5.785848e+00
    4.826400e+05    5.530036e+00
    4.854900e+05    5.306390e+00
    4.888281e+05    5.074227e+00
    4.926400e+05    4.848097e+00
    4.971094e+05    4.621982e+00
    5.012500e+05    4.444572e+00
    5.053906e+05    4.291718e+00
    5.095313e+05    4.159025e+00
    5.136719e+05    4.043027e+00
    5.198828e+05    3.895713e+00
    5.260937e+05    3.770080e+00
    5.343750e+05    3.633112e+00
    5.426563e+05    3.521078e+00
    5.509375e+05    3.427807e+00
    5.592187e+05    3.348918e+00
    5.715032e+05    3.252815e+00
    5.840625e+05    3.170833e+00
    6.006250e+05    3.084013e+00
    6.215412e+05    2.997910e+00
    6.426911e+05    2.927439e+00
    6.668750e+05    2.861274e+00
    7.049379e+05    2.783668e+00
    7.375000e+05    2.736587e+00
    7.615847e+05    2.716060e+00
    7.750000e+05    2.709078e+00
    7.937500e+05    2.709358e+00
    8.171875e+05    2.729804e+00
    8.312500e+05    2.755688e+00
    8.406250e+05    2.781681e+00
    8.500000e+05    2.816133e+00
    8.593750e+05    2.861118e+00
    8.687500e+05    2.919360e+00
    8.781250e+05    2.994447e+00
    8.851562e+05    3.065439e+00
    8.921875e+05    3.149616e+00
    8.992188e+05    3.253741e+00
    9.039062e+05    3.334494e+00
    9.085938e+05    3.426467e+00
    9.132812e+05    3.531300e+00
    9.156250e+05    3.587223e+00
    9.203125e+05    3.714667e+00
    9.250000e+05    3.860080e+00
    9.296875e+05    4.025931e+00
    9.343750e+05    4.214868e+00
    9.390625e+05    4.429608e+00
    9.437500e+05    4.672733e+00
    9.484375e+05    4.946369e+00
    9.531250e+05    5.251673e+00
    9.578125e+05    5.588105e+00
    9.625000e+05    5.952501e+00
    9.765625e+05    7.119371e+00
    9.824219e+05    7.556494e+00
    9.859375e+05    7.778927e+00
    9.894531e+05    7.952441e+00
    9.917969e+05    8.040787e+00
    9.941407e+05    8.103844e+00
    9.964843e+05    8.140446e+00
    9.976562e+05    8.151770e+00
    1.000703e+06    8.136986e+00
    1.003750e+06    8.087731e+00
    1.007500e+06    7.966679e+00
    1.011250e+06    7.794060e+00
    1.015000e+06    7.581060e+00
    1.018750e+06    7.339259e+00
    1.033750e+06    6.284070e+00
    1.039375e+06    5.904125e+00
    1.045000e+06    5.554756e+00
    1.050625e+06    5.241074e+00
    1.056250e+06    4.956473e+00
    1.061875e+06    4.705909e+00
    1.067500e+06    4.480578e+00
    1.073125e+06    4.283196e+00
    1.078750e+06    4.105811e+00
    1.082500e+06    3.999417e+00
    1.090000e+06    3.809798e+00
    1.097500e+06    3.646748e+00
    1.105000e+06    3.505864e+00
    1.112500e+06    3.383503e+00
    1.120000e+06    3.276701e+00
    1.128281e+06    3.173968e+00
    1.136562e+06    3.084683e+00
    1.144844e+06    3.006809e+00
    1.157266e+06    2.909002e+00
    1.169687e+06    2.827547e+00
    1.182109e+06    2.763908e+00
    1.194531e+06    2.713779e+00
    1.206953e+06    2.681366e+00
    1.215234e+06    2.669488e+00
    1.219375e+06    2.665857e+00
    1.227656e+06    2.669862e+00
    1.235937e+06    2.688788e+00
    1.242149e+06    2.716994e+00
    1.248359e+06    2.759010e+00
    1.252500e+06    2.798777e+00
    1.256641e+06    2.850109e+00
    1.260781e+06    2.916024e+00
    1.264922e+06    3.000484e+00
    1.268027e+06    3.079966e+00
    1.271133e+06    3.174140e+00
    1.273203e+06    3.248226e+00
    1.275273e+06    3.332342e+00
    1.277344e+06    3.427891e+00
    1.279414e+06    3.536443e+00
    1.281484e+06    3.659730e+00
    1.283555e+06    3.799616e+00
    1.285625e+06    3.958015e+00
    1.287695e+06    4.136776e+00
    1.289766e+06    4.337465e+00
    1.291836e+06    4.561019e+00
    1.293906e+06    4.807285e+00
    1.295977e+06    5.074421e+00
    1.302188e+06    5.938806e+00
    1.304258e+06    6.209146e+00
    1.306328e+06    6.442816e+00
    1.307881e+06    6.580916e+00
    1.309434e+06    6.683992e+00
    1.310986e+06    6.739814e+00
    1.312539e+06    6.753548e+00
    1.314092e+06    6.717167e+00
    1.315645e+06    6.641355e+00
    1.316680e+06    6.567783e+00
    1.318750e+06    6.377863e+00
    1.320820e+06    6.145493e+00
    1.324961e+06    5.620584e+00
    1.329102e+06    5.096652e+00
    1.331172e+06    4.854810e+00
    1.333242e+06    4.630592e+00
    1.335313e+06    4.425007e+00
    1.337383e+06    4.237919e+00
    1.339453e+06    4.068479e+00
    1.341523e+06    3.915451e+00
    1.343594e+06    3.777422e+00
    1.345664e+06    3.652950e+00
    1.347734e+06    3.540630e+00
    1.350840e+06    3.393116e+00
    1.353945e+06    3.264041e+00
    1.356016e+06    3.188402e+00
    1.360156e+06    3.056563e+00
    1.364297e+06    2.946078e+00
    1.368437e+06    2.852606e+00
    1.372578e+06    2.772755e+00
    1.376719e+06    2.703904e+00
    1.382930e+06    2.617692e+00
    1.385000e+06    2.591480e+00
    1.393281e+06    2.503652e+00
    1.401563e+06    2.433029e+00
    1.409844e+06    2.374816e+00
    1.422265e+06    2.304698e+00
    1.434688e+06    2.246906e+00
    1.451250e+06    2.185143e+00
    1.467812e+06    2.134393e+00
    1.484375e+06    2.091146e+00
    1.517500e+06    2.019263e+00
    1.550625e+06    1.959796e+00
    1.592031e+06    1.897825e+00
    1.616875e+06    1.870415e+00
    1.625156e+06    1.868777e+00
    1.629297e+06    1.872858e+00
    1.633438e+06    1.884818e+00
    1.635508e+06    1.896654e+00
    1.638095e+06    1.922789e+00
    1.639648e+06    1.948496e+00
    1.640684e+06    1.973449e+00
    1.641978e+06    2.018422e+00
    1.642754e+06    2.056233e+00
    1.643271e+06    2.088415e+00
    1.643789e+06    2.127912e+00
    1.644307e+06    2.177006e+00
    1.644954e+06    2.256473e+00
    1.645342e+06    2.317648e+00
    1.645730e+06    2.392711e+00
    1.646118e+06    2.485217e+00
    1.646377e+06    2.559627e+00
    1.646636e+06    2.646701e+00
    1.646895e+06    2.749346e+00
    1.647153e+06    2.870241e+00
    1.647347e+06    2.976207e+00
    1.647542e+06    3.098503e+00
    1.647736e+06    3.239147e+00
    1.647930e+06    3.402404e+00
    1.648124e+06    3.591589e+00
    1.648253e+06    3.735019e+00
    1.648383e+06    3.894022e+00
    1.648512e+06    4.070442e+00
    1.648642e+06    4.266372e+00
    1.648770e+06    4.483413e+00
    1.648900e+06    4.724151e+00
    1.649029e+06    4.990102e+00
    1.649159e+06    5.282751e+00
    1.649289e+06    5.603034e+00
    1.649418e+06    5.949815e+00
    1.649612e+06    6.516571e+00
    1.650046e+06    7.856547e+00
    1.650186e+06    8.242237e+00
    1.650278e+06    8.463228e+00
    1.650371e+06    8.649442e+00
    1.650464e+06    8.791037e+00
    1.650557e+06    8.882436e+00
    1.650649e+06    8.919358e+00
    1.650742e+06    8.900756e+00
    1.650835e+06    8.826986e+00
    1.650928e+06    8.701452e+00
    1.651021e+06    8.529218e+00
    1.651160e+06    8.201617e+00
    1.651299e+06    7.809953e+00
    1.651763e+06    6.385206e+00
    1.651901e+06    5.981395e+00
    1.652041e+06    5.606660e+00
    1.652181e+06    5.263523e+00
    1.652319e+06    4.953153e+00
    1.652458e+06    4.671875e+00
    1.652598e+06    4.419445e+00
    1.652736e+06    4.194421e+00
    1.652876e+06    3.992478e+00
    1.652969e+06    3.870553e+00
    1.653154e+06    3.652200e+00
    1.653340e+06    3.461983e+00
    1.653525e+06    3.297782e+00
    1.653711e+06    3.154605e+00
    1.653896e+06    3.030143e+00
    1.654082e+06    2.920873e+00
    1.654268e+06    2.824837e+00
    1.654546e+06    2.701627e+00
    1.654824e+06    2.598519e+00
    1.655103e+06    2.511591e+00
    1.655381e+06    2.439253e+00
    1.655566e+06    2.395076e+00
    1.655937e+06    2.320410e+00
    1.656309e+06    2.258623e+00
    1.656680e+06    2.207014e+00
    1.657236e+06    2.144446e+00
    1.657793e+06    2.094520e+00
    1.658164e+06    2.067106e+00
    1.658906e+06    2.022215e+00
    1.659648e+06    1.987245e+00
    1.660762e+06    1.948140e+00
    1.661875e+06    1.918798e+00
    1.663359e+06    1.890607e+00
    1.664844e+06    1.870071e+00
    1.667813e+06    1.842244e+00
    1.672265e+06    1.817520e+00
    1.679688e+06    1.792630e+00
    1.691562e+06    1.768585e+00
    1.768750e+06    1.652774e+00
    1.792500e+06    1.608335e+00
    1.816250e+06    1.549018e+00
    1.819590e+06    1.550517e+00
    1.820703e+06    1.554721e+00
    1.822559e+06    1.572292e+00
    1.823672e+06    1.592355e+00
    1.824414e+06    1.612682e+00
    1.825156e+06    1.640814e+00
    1.825898e+06    1.679643e+00
    1.826456e+06    1.718675e+00
    1.827012e+06    1.768616e+00
    1.827383e+06    1.809966e+00
    1.827754e+06    1.859152e+00
    1.828125e+06    1.917769e+00
    1.828496e+06    1.987737e+00
    1.828960e+06    2.094041e+00
    1.829238e+06    2.170418e+00
    1.829517e+06    2.257842e+00
    1.829795e+06    2.357507e+00
    1.830073e+06    2.470761e+00
    1.830352e+06    2.599185e+00
    1.830630e+06    2.743677e+00
    1.830908e+06    2.905019e+00
    1.831094e+06    3.022803e+00
    1.831465e+06    3.278608e+00
    1.832022e+06    3.699787e+00
    1.832671e+06    4.197588e+00
    1.832949e+06    4.384358e+00
    1.833228e+06    4.540763e+00
    1.833413e+06    4.623791e+00
    1.833599e+06    4.687619e+00
    1.833784e+06    4.731195e+00
    1.833969e+06    4.754206e+00
    1.834062e+06    4.758204e+00
    1.834341e+06    4.741285e+00
    1.834619e+06    4.686098e+00
    1.834805e+06    4.630689e+00
    1.835176e+06    4.489233e+00
    1.835547e+06    4.321442e+00
    1.836475e+06    3.873234e+00
    1.837031e+06    3.623777e+00
    1.837402e+06    3.473477e+00
    1.837773e+06    3.336639e+00
    1.838145e+06    3.212830e+00
    1.838516e+06    3.101410e+00
    1.839072e+06    2.955444e+00
    1.839629e+06    2.830323e+00
    1.840000e+06    2.757624e+00
    1.840547e+06    2.663207e+00
    1.841094e+06    2.581639e+00
    1.841641e+06    2.510934e+00
    1.842461e+06    2.421951e+00
    1.843281e+06    2.347887e+00
    1.844102e+06    2.287006e+00
    1.845469e+06    2.205750e+00
    1.846562e+06    2.154867e+00
    1.847656e+06    2.113318e+00
    1.849297e+06    2.064679e+00
    1.850937e+06    2.026870e+00
    1.853125e+06    1.990309e+00
    1.855313e+06    1.964778e+00
    1.857500e+06    1.947625e+00
    1.860781e+06    1.934796e+00
    1.861875e+06    1.932546e+00
    1.865156e+06    1.935896e+00
    1.868437e+06    1.949618e+00
    1.871719e+06    1.977009e+00
    1.873906e+06    2.002766e+00
    1.876094e+06    2.035876e+00
    1.877188e+06    2.054529e+00
    1.879375e+06    2.100754e+00
    1.881563e+06    2.157664e+00
    1.883750e+06    2.226936e+00
    1.885938e+06    2.310242e+00
    1.888125e+06    2.408867e+00
    1.890312e+06    2.523081e+00
    1.892500e+06    2.651127e+00
    1.896875e+06    2.923969e+00
    1.899063e+06    3.045313e+00
    1.900156e+06    3.095340e+00
    1.901250e+06    3.135480e+00
    1.902344e+06    3.164175e+00
    1.903438e+06    3.180285e+00
    1.904531e+06    3.183289e+00
    1.905625e+06    3.173332e+00
    1.906719e+06    3.151191e+00
    1.908359e+06    3.097294e+00
    1.910000e+06    3.026331e+00
    1.912974e+06    2.868733e+00
    1.917647e+06    2.613062e+00
    1.920195e+06    2.487177e+00
    1.922744e+06    2.377596e+00
    1.925293e+06    2.281523e+00
    1.927842e+06    2.200316e+00
    1.930391e+06    2.129848e+00
    1.933789e+06    2.051925e+00
    1.937187e+06    1.988037e+00
    1.940586e+06    1.935174e+00
    1.943984e+06    1.890958e+00
    1.949082e+06    1.837510e+00
    1.950781e+06    1.821575e+00
    1.957578e+06    1.769768e+00
    1.964375e+06    1.729508e+00
    1.971172e+06    1.697128e+00
    1.977969e+06    1.670291e+00
    1.991562e+06    1.627558e+00
    2.005156e+06    1.593940e+00
    2.018750e+06    1.565736e+00
    2.045937e+06    1.518128e+00
    2.127500e+06    1.391366e+00
    2.154688e+06    1.342507e+00
    2.175078e+06    1.298957e+00
    2.188672e+06    1.265437e+00
    2.195469e+06    1.247547e+00
    2.209062e+06    1.205891e+00
    2.222656e+06    1.156421e+00
    2.232851e+06    1.112305e+00
    2.239649e+06    1.079202e+00
    2.246445e+06    1.042446e+00
    2.249844e+06    1.023072e+00
    2.256641e+06    9.799299e-01
    2.263437e+06    9.317865e-01
    2.270234e+06    8.780772e-01
    2.277031e+06    8.183056e-01
    2.282129e+06    7.690857e-01
    2.287227e+06    7.165659e-01
    2.292324e+06    6.601107e-01
    2.297422e+06    6.006935e-01
    2.305918e+06    4.956622e-01
    2.317813e+06    3.454774e-01
    2.322061e+06    2.946084e-01
    2.324609e+06    2.655963e-01
    2.326309e+06    2.471496e-01
    2.328008e+06    2.294982e-01
    2.329707e+06    2.127349e-01
    2.331406e+06    1.969524e-01
    2.333105e+06    1.822404e-01
    2.334805e+06    1.686841e-01
    2.336504e+06    1.563584e-01
    2.337778e+06    1.479968e-01
    2.339053e+06    1.403505e-01
    2.340327e+06    1.335553e-01
    2.341602e+06    1.275133e-01
    2.342876e+06    1.223678e-01
    2.344150e+06    1.180090e-01
    2.345000e+06    1.156060e-01
    2.346211e+06    1.128483e-01
    2.347422e+06    1.108773e-01
    2.348633e+06    1.096992e-01
    2.349844e+06    1.093132e-01
    2.351055e+06    1.097156e-01
    2.352266e+06    1.108997e-01
    2.353477e+06    1.127367e-01
    2.354158e+06    1.119624e-01
    2.354536e+06    1.109719e-01
    2.354763e+06    1.100411e-01
    2.354915e+06    1.090840e-01
    2.355066e+06    1.075738e-01
    2.355180e+06    1.056165e-01
    2.355265e+06    1.041052e-01
    2.355304e+06    1.038679e-01
    2.355350e+06    1.041969e-01
    2.355406e+06    1.053270e-01
    2.355520e+06    1.081504e-01
    2.355596e+06    1.096130e-01
    2.355747e+06    1.118098e-01
    2.355898e+06    1.135488e-01
    2.356201e+06    1.164073e-01
    2.356504e+06    1.188409e-01
    2.357109e+06    1.230327e-01
    2.358320e+06    1.281016e-01
    2.359531e+06    1.336755e-01
    2.360742e+06    1.399056e-01
    2.361953e+06    1.467669e-01
    2.363164e+06    1.542313e-01
    2.364375e+06    1.622694e-01
    2.366192e+06    1.753825e-01
    2.368008e+06    1.895149e-01
    2.369825e+06    2.048332e-01
    2.371641e+06    2.207889e-01
    2.374062e+06    2.434252e-01
    2.376484e+06    2.671977e-01
    2.380117e+06    3.046206e-01
    2.387383e+06    3.818613e-01
    2.394649e+06    4.593359e-01
    2.398281e+06    4.971014e-01
    2.403125e+06    5.453869e-01
    2.407969e+06    5.911109e-01
    2.412813e+06    6.339965e-01
    2.417656e+06    6.739196e-01
    2.422570e+06    7.113642e-01
    2.427344e+06    7.449215e-01
    2.432187e+06    7.761908e-01
    2.437031e+06    8.048344e-01
    2.441875e+06    8.310179e-01
    2.449699e+06    8.683468e-01
    2.461003e+06    9.131389e-01
    2.470938e+06    9.463253e-01
    2.480625e+06    9.725355e-01
    2.490312e+06    9.942998e-01
    2.503418e+06    1.017404e+00
    2.518555e+06    1.038507e+00
    2.534180e+06    1.054636e+00
    2.549805e+06    1.066472e+00
    2.565430e+06    1.074856e+00
    2.593750e+06    1.084725e+00
    2.625000e+06    1.089234e+00
    2.706458e+06    1.087864e+00
    2.750000e+06    1.085224e+00
    2.818359e+06    1.086010e+00
    2.843750e+06    1.089109e+00
    2.880859e+06    1.099650e+00
    2.914062e+06    1.115763e+00
    2.932617e+06    1.129603e+00
    2.953125e+06    1.147982e+00
    2.968750e+06    1.166475e+00
    2.984375e+06    1.189013e+00
    3.000000e+06    1.216359e+00
    3.015625e+06    1.249421e+00
    3.031250e+06    1.289260e+00
    3.046875e+06    1.337108e+00
    3.062500e+06    1.394357e+00
    3.074218e+06    1.444755e+00
    3.083985e+06    1.492413e+00
