    energy(eV)      sigma_s(b)
    1.000000e-05    5.574584e+01
    1.103037e-05    5.308949e+01
    1.216691e-05    5.056082e+01
    1.342055e-05    4.815373e+01
    1.480336e-05    4.586244e+01
    1.632865e-05    4.368143e+01
    1.801111e-05    4.160546e+01
    1.986691e-05    3.962955e+01
    2.191394e-05    3.774893e+01
    2.417189e-05    3.595908e+01
    2.666248e-05    3.425570e+01
    2.940971e-05    3.263469e+01
    3.243999e-05    3.109216e+01
    3.578251e-05    2.962439e+01
    3.946943e-05    2.822785e+01
    4.353624e-05    2.689918e+01
    4.802208e-05    2.563518e+01
    5.297013e-05    2.443282e+01
    5.842801e-05    2.328920e+01
    6.444825e-05    2.220156e+01
    7.108881e-05    2.116729e+01
    7.841358e-05    2.018390e+01
    8.649308e-05    1.924902e+01
    9.540506e-05    1.836039e+01
    1.052353e-04    1.751588e+01
    1.160784e-04    1.671345e+01
    1.289420e-04    1.589800e+01
    1.432240e-04    1.512675e+01
    1.590958e-04    1.439683e+01
    1.767178e-04    1.370689e+01
    1.963013e-04    1.305437e+01
    2.180443e-04    1.243805e+01
    2.422075e-04    1.185565e+01
    2.690352e-04    1.130606e+01
    2.988492e-04    1.078724e+01
    3.319507e-04    1.029820e+01
    3.687368e-04    9.837093e+00
    4.095793e-04    9.403040e+00
    4.549680e-04    8.994386e+00
    5.053618e-04    8.610326e+00
    5.613650e-04    8.249376e+00
    6.235436e-04    7.910801e+00
    6.974952e-04    7.572902e+00
    7.802173e-04    7.257933e+00
    8.727501e-04    6.964772e+00
    9.762572e-04    6.692340e+00
    1.092040e-03    6.439607e+00
    1.230172e-03    6.191503e+00
    1.385708e-03    5.963467e+00
    1.560985e-03    5.754198e+00
    1.770751e-03    5.552021e+00
    2.008705e-03    5.368527e+00
    2.294596e-03    5.193789e+00
    2.621306e-03    5.037040e+00
    3.015509e-03    4.890059e+00
    3.493293e-03    4.753914e+00
    4.075325e-03    4.629318e+00
    4.787870e-03    4.516698e+00
    5.664399e-03    4.416161e+00
    6.795943e-03    4.324194e+00
    8.326477e-03    4.239274e+00
    1.034614e-02    4.165541e+00
    1.322035e-02    4.099412e+00
    1.749560e-02    4.041236e+00
    2.414725e-02    3.991679e+00
    2.524188e-02    3.986027e+00
    2.530000e-02    3.985740e+00
    3.745250e-02    3.945372e+00
    6.072948e-02    3.913161e+00
    1.148747e-01    3.888731e+00
    2.936784e-01    3.872049e+00
    1.840410e+00    3.863038e+00
    8.471720e+04    3.676258e+00
    1.414403e+05    3.567251e+00
    1.894627e+05    3.487678e+00
    2.304366e+05    3.441138e+00
    2.577661e+05    3.426638e+00
    2.623438e+05    3.425903e+00
    2.814853e+05    3.437044e+00
    2.950490e+05    3.457956e+00
    3.043192e+05    3.480568e+00
    3.176941e+05    3.531942e+00
    3.277019e+05    3.591124e+00
    3.353906e+05    3.652960e+00
    3.420313e+05    3.722847e+00
    3.486719e+05    3.812119e+00
    3.553125e+05    3.926966e+00
    3.602929e+05    4.036348e+00
    3.652734e+05    4.167471e+00
    3.685938e+05    4.272508e+00
    3.719141e+05    4.393845e+00
    3.752344e+05    4.534593e+00
    3.785547e+05    4.698584e+00
    3.818750e+05    4.890555e+00
    3.851953e+05    5.116335e+00
    3.876856e+05    5.313587e+00
    3.901758e+05    5.534938e+00
    3.926660e+05    5.790747e+00
    3.951563e+05    6.079112e+00
    3.968164e+05    6.295670e+00
    3.984766e+05    6.532955e+00
    4.001367e+05    6.793118e+00
    4.017969e+05    7.078473e+00
    4.034570e+05    7.391476e+00
    4.051172e+05    7.734683e+00
    4.067773e+05    8.110673e+00
    4.084375e+05    8.521939e+00
    4.100977e+05    8.970709e+00
    4.117578e+05    9.458711e+00
    4.134180e+05    9.986845e+00
    4.150781e+05    1.055474e+01
    4.175683e+05    1.147919e+01
    4.213498e+05    1.298480e+01
    4.250391e+05    1.446721e+01
    4.266992e+05    1.507375e+01
    4.283594e+05    1.560754e+01
    4.300195e+05    1.604253e+01
    4.312647e+05    1.628570e+01
    4.325098e+05    1.645879e+01
    4.337548e+05    1.654146e+01
    4.341699e+05    1.655554e+01
    4.355689e+05    1.651309e+01
    4.365528e+05    1.642487e+01
    4.375879e+05    1.627881e+01
    4.391406e+05    1.597081e+01
    4.406934e+05    1.555656e+01
    4.422460e+05    1.506130e+01
    4.432812e+05    1.471607e+01
    4.515625e+05    1.160118e+01
    4.536328e+05    1.087932e+01
    4.557031e+05    1.020923e+01
    4.577734e+05    9.594317e+00
    4.598438e+05    9.034587e+00
    4.619141e+05    8.527825e+00
    4.639844e+05    8.070559e+00
    4.660547e+05    7.658706e+00
    4.681250e+05    7.288015e+00
    4.701953e+05    6.954314e+00
    4.722656e+05    6.653673e+00
    4.743359e+05    6.382473e+00
    4.764062e+05    6.137441e+00
    4.784766e+05    5.915645e+00
    4.805469e+05    5.714478e+00
    4.836524e+05    5.448251e+00
    4.867578e+05    5.213066e+00
    4.898632e+05    5.010124e+00
    4.929688e+05    4.829286e+00
    4.971094e+05    4.621820e+00
    5.012500e+05    4.444423e+00
    5.053906e+05    4.291569e+00
    5.095313e+05    4.158877e+00
    5.136719e+05    4.042879e+00
    5.198828e+05    3.895566e+00
    5.260937e+05    3.769933e+00
    5.343750e+05    3.632966e+00
    5.426563e+05    3.520933e+00
    5.509375e+05    3.427663e+00
    5.592187e+05    3.348775e+00
    5.715032e+05    3.252673e+00
    5.840625e+05    3.170692e+00
    6.006250e+05    3.083874e+00
    6.215412e+05    2.997772e+00
    6.426911e+05    2.927304e+00
    6.668750e+05    2.861141e+00
    7.049379e+05    2.783538e+00
    7.375000e+05    2.736461e+00
    7.615847e+05    2.715937e+00
    7.750000e+05    2.708956e+00
    7.937500e+05    2.709238e+00
    8.171875e+05    2.729686e+00
    8.312500e+05    2.755571e+00
    8.406250e+05    2.781565e+00
    8.500000e+05    2.816018e+00
    8.593750e+05    2.861004e+00
    8.687500e+05    2.919247e+00
    8.781250e+05    2.994335e+00
    8.851562e+05    3.065328e+00
    8.921875e+05    3.149505e+00
    8.992188e+05    3.253631e+00
    9.039062e+05    3.334385e+00
    9.085938e+05    3.426358e+00
    9.132812e+05    3.531191e+00
    9.156250e+05    3.587115e+00
    9.203125e+05    3.714559e+00
    9.250000e+05    3.859973e+00
    9.296875e+05    4.025824e+00
    9.343750e+05    4.214762e+00
    9.390625e+05    4.429502e+00
    9.437500e+05    4.672627e+00
    9.484375e+05    4.946264e+00
    9.531250e+05    5.251568e+00
    9.578125e+05    5.588001e+00
    9.625000e+05    5.952397e+00
    9.765625e+05    7.119269e+00
    9.824219e+05    7.556392e+00
    9.859375e+05    7.778826e+00
    9.894531e+05    7.952340e+00
    9.917969e+05    8.040686e+00
    9.941407e+05    8.103743e+00
    9.964843e+05    8.140346e+00
    9.976562e+05    8.151670e+00
    1.000703e+06    8.136886e+00
    1.003750e+06    8.087631e+00
    1.007500e+06    7.966579e+00
    1.011250e+06    7.793960e+00
    1.015000e+06    7.580960e+00
    1.018750e+06    7.339159e+00
    1.033750e+06    6.283970e+00
    1.039375e+06    5.904025e+00
    1.045000e+06    5.554656e+00
    1.050625e+06    5.240974e+00
    1.056250e+06    4.956373e+00
    1.061875e+06    4.705809e+00
    1.067500e+06    4.480478e+00
    1.073125e+06    4.283096e+00
    1.078750e+06    4.105711e+00
    1.082500e+06    3.999317e+00
    1.090000e+06    3.809698e+00
    1.097500e+06    3.646648e+00
    1.105000e+06    3.505764e+00
    1.112500e+06    3.383403e+00
    1.120000e+06    3.276601e+00
    1.128281e+06    3.173868e+00
    1.136562e+06    3.084583e+00
    1.144844e+06    3.006709e+00
    1.157266e+06    2.908902e+00
    1.169687e+06    2.827447e+00
    1.182109e+06    2.763808e+00
    1.194531e+06    2.713679e+00
    1.206953e+06    2.681266e+00
    1.215234e+06    2.669389e+00
    1.219375e+06    2.665757e+00
    1.227656e+06    2.669762e+00
    1.235937e+06    2.688688e+00
    1.242149e+06    2.716894e+00
    1.248359e+06    2.758910e+00
    1.252500e+06    2.798677e+00
    1.256641e+06    2.850009e+00
    1.260781e+06    2.915924e+00
    1.264922e+06    3.000384e+00
    1.268027e+06    3.079866e+00
    1.271133e+06    3.174040e+00
    1.273203e+06    3.248126e+00
    1.275273e+06    3.332242e+00
    1.277344e+06    3.427790e+00
    1.279414e+06    3.536343e+00
    1.281484e+06    3.659630e+00
    1.283555e+06    3.799516e+00
    1.285625e+06    3.957915e+00
    1.287695e+06    4.136676e+00
    1.289766e+06    4.337365e+00
    1.291836e+06    4.560919e+00
    1.293906e+06    4.807185e+00
    1.295977e+06    5.074321e+00
    1.302188e+06    5.938706e+00
    1.304258e+06    6.209046e+00
    1.306328e+06    6.442716e+00
    1.307881e+06    6.580816e+00
    1.309434e+06    6.683892e+00
    1.310986e+06    6.739714e+00
    1.312539e+06    6.753448e+00
    1.314092e+06    6.717067e+00
    1.315645e+06    6.641255e+00
    1.316680e+06    6.567683e+00
    1.318750e+06    6.377763e+00
    1.320820e+06    6.145393e+00
    1.324961e+06    5.620484e+00
    1.329102e+06    5.096552e+00
    1.331172e+06    4.854710e+00
    1.333242e+06    4.630492e+00
    1.335313e+06    4.424907e+00
    1.337383e+06    4.237819e+00
    1.339453e+06    4.068379e+00
    1.341523e+06    3.915351e+00
    1.343594e+06    3.777322e+00
    1.345664e+06    3.652850e+00
    1.347734e+06    3.540530e+00
    1.350840e+06    3.393016e+00
    1.353945e+06    3.263941e+00
    1.356016e+06    3.188302e+00
    1.360156e+06    3.056463e+00
    1.364297e+06    2.945978e+00
    1.368437e+06    2.852506e+00
    1.372578e+06    2.772655e+00
    1.376719e+06    2.703804e+00
    1.382930e+06    2.617592e+00
    1.385000e+06    2.591380e+00
    1.393281e+06    2.503552e+00
    1.401563e+06    2.432929e+00
    1.409844e+06    2.374716e+00
    1.422265e+06    2.304598e+00
    1.434688e+06    2.246806e+00
    1.451250e+06    2.185043e+00
    1.467812e+06    2.134293e+00
    1.484375e+06    2.091046e+00
    1.517500e+06    2.019163e+00
    1.550625e+06    1.959696e+00
    1.592031e+06    1.897725e+00
    1.616875e+06    1.870315e+00
    1.625156e+06    1.868677e+00
    1.629297e+06    1.872758e+00
    1.633438e+06    1.884718e+00
    1.635508e+06    1.896554e+00
    1.638095e+06    1.922689e+00
    1.639648e+06    1.948396e+00
    1.640684e+06    1.973349e+00
    1.641978e+06    2.018322e+00
    1.642754e+06    2.056133e+00
    1.643271e+06    2.088315e+00
    1.643789e+06    2.127812e+00
    1.644307e+06    2.176906e+00
    1.644954e+06    2.256373e+00
    1.645342e+06    2.317548e+00
    1.645730e+06    2.392611e+00
    1.646118e+06    2.485117e+00
    1.646377e+06    2.559527e+00
    1.646636e+06    2.646601e+00
    1.646895e+06    2.749246e+00
    1.647153e+06    2.870141e+00
    1.647347e+06    2.976107e+00
    1.647542e+06    3.098403e+00
    1.647736e+06    3.239047e+00
    1.647930e+06    3.402304e+00
    1.648124e+06    3.591489e+00
    1.648253e+06    3.734919e+00
    1.648383e+06    3.893922e+00
    1.648512e+06    4.070342e+00
    1.648642e+06    4.266272e+00
    1.648770e+06    4.483313e+00
    1.648900e+06    4.724051e+00
    1.649029e+06    4.990002e+00
    1.649159e+06    5.282651e+00
    1.649289e+06    5.602934e+00
    1.649418e+06    5.949715e+00
    1.649612e+06    6.516471e+00
    1.650046e+06    7.856447e+00
    1.650186e+06    8.242137e+00
    1.650278e+06    8.463128e+00
    1.650371e+06    8.649342e+00
    1.650464e+06    8.790937e+00
    1.650557e+06    8.882336e+00
    1.650649e+06    8.919258e+00
    1.650742e+06    8.900656e+00
    1.650835e+06    8.826886e+00
    1.650928e+06    8.701352e+00
    1.651021e+06    8.529118e+00
    1.651160e+06    8.201517e+00
    1.651299e+06    7.809853e+00
    1.651763e+06    6.385106e+00
    1.651901e+06    5.981295e+00
    1.652041e+06    5.606560e+00
    1.652181e+06    5.263423e+00
    1.652319e+06    4.953053e+00
    1.652458e+06    4.671775e+00
    1.652598e+06    4.419345e+00
    1.652736e+06    4.194321e+00
    1.652876e+06    3.992378e+00
    1.652969e+06    3.870453e+00
    1.653154e+06    3.652100e+00
    1.653340e+06    3.461883e+00
    1.653525e+06    3.297682e+00
    1.653711e+06    3.154505e+00
    1.653896e+06    3.030043e+00
    1.654082e+06    2.920773e+00
    1.654268e+06    2.824737e+00
    1.654546e+06    2.701527e+00
    1.654824e+06    2.598419e+00
    1.655103e+06    2.511491e+00
    1.655381e+06    2.439153e+00
    1.655566e+06    2.394976e+00
    1.655937e+06    2.320310e+00
    1.656309e+06    2.258523e+00
    1.656680e+06    2.206914e+00
    1.657236e+06    2.144346e+00
    1.657793e+06    2.094420e+00
    1.658164e+06    2.067006e+00
    1.658906e+06    2.022115e+00
    1.659648e+06    1.987145e+00
    1.660762e+06    1.948040e+00
    1.661875e+06    1.918698e+00
    1.663359e+06    1.890507e+00
    1.664844e+06    1.869971e+00
    1.667813e+06    1.842144e+00
    1.672265e+06    1.817420e+00
    1.679688e+06    1.792530e+00
    1.691562e+06    1.768485e+00
    1.768750e+06    1.652674e+00
    1.792500e+06    1.608235e+00
    1.816250e+06    1.548918e+00
    1.819590e+06    1.550417e+00
    1.820703e+06    1.554621e+00
    1.822559e+06    1.572192e+00
    1.823672e+06    1.592255e+00
    1.824414e+06    1.612582e+00
    1.825156e+06    1.640714e+00
    1.825898e+06    1.679543e+00
    1.826456e+06    1.718575e+00
    1.827012e+06    1.768516e+00
    1.827383e+06    1.809866e+00
    1.827754e+06    1.859052e+00
    1.828125e+06    1.917669e+00
    1.828496e+06    1.987637e+00
    1.828960e+06    2.093941e+00
    1.829238e+06    2.170318e+00
    1.829517e+06    2.257742e+00
    1.829795e+06    2.357407e+00
    1.830073e+06    2.470661e+00
    1.830352e+06    2.599085e+00
    1.830630e+06    2.743577e+00
    1.830908e+06    2.904919e+00
    1.831094e+06    3.022703e+00
    1.831465e+06    3.278508e+00
    1.832022e+06    3.699687e+00
    1.832671e+06    4.197488e+00
    1.832949e+06    4.384258e+00
    1.833228e+06    4.540663e+00
    1.833413e+06    4.623691e+00
    1.833599e+06    4.687519e+00
    1.833784e+06    4.731095e+00
    1.833969e+06    4.754106e+00
    1.834062e+06    4.758104e+00
    1.834341e+06    4.741185e+00
    1.834619e+06    4.685998e+00
    1.834805e+06    4.630589e+00
    1.835176e+06    4.489133e+00
    1.835547e+06    4.321342e+00
    1.836475e+06    3.873134e+00
    1.837031e+06    3.623677e+00
    1.837402e+06    3.473377e+00
    1.837773e+06    3.336539e+00
    1.838145e+06    3.212730e+00
    1.838516e+06    3.101310e+00
    1.839072e+06    2.955344e+00
    1.839629e+06    2.830223e+00
    1.840000e+06    2.757524e+00
    1.840547e+06    2.663107e+00
    1.841094e+06    2.581539e+00
    1.841641e+06    2.510834e+00
    1.842461e+06    2.421851e+00
    1.843281e+06    2.347787e+00
    1.844102e+06    2.286906e+00
    1.845469e+06    2.205650e+00
    1.846562e+06    2.154767e+00
    1.847656e+06    2.113218e+00
    1.849297e+06    2.064579e+00
    1.850937e+06    2.026770e+00
    1.853125e+06    1.990209e+00
    1.855313e+06    1.964678e+00
    1.857500e+06    1.947525e+00
    1.860781e+06    1.934696e+00
    1.861875e+06    1.932446e+00
    1.865156e+06    1.935796e+00
    1.868437e+06    1.949518e+00
    1.871719e+06    1.976909e+00
    1.873906e+06    2.002666e+00
    1.876094e+06    2.035776e+00
    1.877188e+06    2.054429e+00
    1.879375e+06    2.100654e+00
    1.881563e+06    2.157564e+00
    1.883750e+06    2.226836e+00
    1.885938e+06    2.310142e+00
    1.888125e+06    2.408767e+00
    1.890312e+06    2.522981e+00
    1.892500e+06    2.651027e+00
    1.896875e+06    2.923869e+00
    1.899063e+06    3.045213e+00
    1.900156e+06    3.095240e+00
    1.901250e+06    3.135380e+00
    1.902344e+06    3.164075e+00
    1.903438e+06    3.180185e+00
    1.904531e+06    3.183189e+00
    1.905625e+06    3.173232e+00
    1.906719e+06    3.151091e+00
    1.908359e+06    3.097194e+00
    1.910000e+06    3.026231e+00
    1.912974e+06    2.868633e+00
    1.917647e+06    2.612962e+00
    1.920195e+06    2.487077e+00
    1.922744e+06    2.377496e+00
    1.925293e+06    2.281423e+00
    1.927842e+06    2.200216e+00
    1.930391e+06    2.129748e+00
    1.933789e+06    2.051825e+00
    1.937187e+06    1.987937e+00
    1.940586e+06    1.935074e+00
    1.943984e+06    1.890858e+00
    1.949082e+06    1.837410e+00
    1.950781e+06    1.821475e+00
    1.957578e+06    1.769668e+00
    1.964375e+06    1.729408e+00
    1.971172e+06    1.697028e+00
    1.977969e+06    1.670191e+00
    1.991562e+06    1.627458e+00
    2.005156e+06    1.593840e+00
    2.018750e+06    1.565636e+00
    2.045937e+06    1.518028e+00
    2.127500e+06    1.391266e+00
    2.154688e+06    1.342407e+00
    2.175078e+06    1.298857e+00
    2.188672e+06    1.265337e+00
    2.195469e+06    1.247447e+00
    2.209062e+06    1.205791e+00
    2.222656e+06    1.156322e+00
    2.232851e+06    1.112205e+00
    2.239649e+06    1.079102e+00
    2.246445e+06    1.042346e+00
    2.249844e+06    1.022972e+00
    2.256641e+06    9.798299e-01
    2.263437e+06    9.316865e-01
    2.270234e+06    8.779772e-01
    2.277031e+06    8.182056e-01
    2.282129e+06    7.689857e-01
    2.287227e+06    7.164659e-01
    2.292324e+06    6.600107e-01
    2.297422e+06    6.005935e-01
    2.305918e+06    4.955622e-01
    2.317813e+06    3.453774e-01
    2.322061e+06    2.945084e-01
    2.324609e+06    2.654963e-01
    2.326309e+06    2.470496e-01
    2.328008e+06    2.293982e-01
    2.329707e+06    2.126349e-01
    2.331406e+06    1.968524e-01
    2.333105e+06    1.821404e-01
    2.334805e+06    1.685841e-01
    2.336504e+06    1.562584e-01
    2.337778e+06    1.478968e-01
    2.339053e+06    1.402505e-01
    2.340327e+06    1.334553e-01
    2.341602e+06    1.274133e-01
    2.342876e+06    1.222678e-01
    2.344150e+06    1.179090e-01
    2.345000e+06    1.155060e-01
    2.346211e+06    1.127483e-01
    2.347422e+06    1.107773e-01
    2.348633e+06    1.095992e-01
    2.349844e+06    1.092132e-01
    2.351055e+06    1.096156e-01
    2.352266e+06    1.107997e-01
    2.353477e+06    1.126367e-01
    2.354158e+06    1.118624e-01
    2.354536e+06    1.108719e-01
    2.354763e+06    1.099411e-01
    2.354915e+06    1.089840e-01
    2.355066e+06    1.074738e-01
    2.355180e+06    1.055165e-01
    2.355265e+06    1.040052e-01
    2.355304e+06    1.037679e-01
    2.355350e+06    1.040969e-01
    2.355406e+06    1.052270e-01
    2.355520e+06    1.080504e-01
    2.355596e+06    1.095130e-01
    2.355747e+06    1.117098e-01
    2.355898e+06    1.134488e-01
    2.356201e+06    1.163073e-01
    2.356504e+06    1.187409e-01
    2.357109e+06    1.229327e-01
    2.358320e+06    1.280016e-01
    2.359531e+06    1.335755e-01
    2.360742e+06    1.398056e-01
    2.361953e+06    1.466669e-01
    2.363164e+06    1.541313e-01
    2.364375e+06    1.621694e-01
    2.366192e+06    1.752825e-01
    2.368008e+06    1.894149e-01
    2.369825e+06    2.047332e-01
    2.371641e+06    2.206889e-01
    2.374062e+06    2.433252e-01
    2.376484e+06    2.670977e-01
    2.380117e+06    3.045206e-01
    2.387383e+06    3.817613e-01
    2.394649e+06    4.592359e-01
    2.398281e+06    4.970014e-01
    2.403125e+06    5.452869e-01
    2.407969e+06    5.910109e-01
    2.412813e+06    6.338965e-01
    2.417656e+06    6.738199e-01
    2.422500e+06    7.107719e-01
    2.427344e+06    7.448215e-01
    2.432187e+06    7.760908e-01
    2.437031e+06    8.047344e-01
    2.444297e+06    8.428967e-01
    2.451563e+06    8.766463e-01
    2.461250e+06    9.146567e-01
    2.470938e+06    9.462253e-01
    2.480625e+06    9.724355e-01
    2.490312e+06    9.942035e-01
    2.500000e+06    1.012285e+00
    2.515625e+06    1.035224e+00
    2.531250e+06    1.052197e+00
    2.546875e+06    1.064673e+00
    2.562500e+06    1.073734e+00
    2.593750e+06    1.084625e+00
    2.625000e+06    1.089134e+00
    2.706458e+06    1.087764e+00
    2.750000e+06    1.085123e+00
    2.812500e+06    1.085196e+00
    2.843750e+06    1.089008e+00
    2.875000e+06    1.096963e+00
    2.906250e+06    1.110768e+00
    2.929688e+06    1.126674e+00
    2.953125e+06    1.147880e+00
    2.968750e+06    1.166372e+00
    2.984375e+06    1.188909e+00
    3.000000e+06    1.216254e+00
